freq,psd_x,psd_y,psd_z,psd_xyz
0.0,1.049e+03,3.035e+01,4.638e+01,1.125e+03
1.6,7.494e+02,1.313e+02,1.831e+02,1.064e+03
3.2,1.862e+02,1.371e+02,1.785e+02,5.019e+02
4.8,7.462e+02,1.382e+02,1.845e+02,1.069e+03
6.5,2.132e+03,1.259e+02,1.777e+02,2.436e+03
8.1,3.431e+03,1.148e+02,1.743e+02,3.720e+03
9.7,5.032e+03,1.160e+02,1.697e+02,5.317e+03
11.3,6.820e+03,1.353e+02,1.532e+02,7.109e+03
12.9,8.913e+03,1.687e+02,1.562e+02,9.238e+03
14.5,1.048e+04,1.831e+02,1.665e+02,1.083e+04
16.1,1.232e+04,1.326e+02,1.734e+02,1.263e+04
17.7,1.534e+04,1.101e+02,1.753e+02,1.562e+04
19.4,1.896e+04,1.009e+02,1.705e+02,1.923e+04
21.0,2.276e+04,9.607e+01,1.795e+02,2.304e+04
22.6,2.695e+04,1.091e+02,1.830e+02,2.724e+04
24.2,3.140e+04,1.010e+02,1.869e+02,3.169e+04
25.8,3.557e+04,9.860e+01,1.891e+02,3.586e+04
27.4,4.131e+04,1.097e+02,1.703e+02,4.159e+04
29.0,4.835e+04,1.171e+02,1.621e+02,4.863e+04
30.7,5.525e+04,1.205e+02,1.648e+02,5.554e+04
32.3,6.219e+04,1.218e+02,1.506e+02,6.246e+04
33.9,6.981e+04,1.122e+02,1.500e+02,7.007e+04
35.5,7.824e+04,1.171e+02,1.562e+02,7.851e+04
37.1,8.780e+04,1.156e+02,1.665e+02,8.808e+04
38.7,9.832e+04,1.075e+02,1.588e+02,9.859e+04
40.3,1.102e+05,1.046e+02,1.605e+02,1.105e+05
41.9,1.247e+05,1.065e+02,2.140e+02,1.250e+05
43.6,1.407e+05,1.122e+02,2.177e+02,1.410e+05
45.2,1.581e+05,1.254e+02,1.825e+02,1.584e+05
46.8,1.787e+05,1.231e+02,1.705e+02,1.790e+05
48.4,2.019e+05,1.068e+02,1.760e+02,2.022e+05
50.0,2.274e+05,1.078e+02,1.741e+02,2.276e+05
51.6,2.559e+05,1.205e+02,1.697e+02,2.562e+05
53.2,2.901e+05,1.381e+02,1.993e+02,2.904e+05
54.9,3.334e+05,1.516e+02,2.381e+02,3.338e+05
56.5,3.862e+05,2.128e+02,3.279e+02,3.867e+05
58.1,4.431e+05,5.327e+02,3.954e+02,4.440e+05
59.7,5.146e+05,1.205e+03,3.911e+02,5.162e+05
61.3,6.044e+05,2.302e+03,3.594e+02,6.070e+05
62.9,7.287e+05,5.749e+03,4.786e+02,7.350e+05
64.5,9.192e+05,2.060e+04,8.860e+02,9.407e+05
66.2,1.205e+06,3.855e+04,1.786e+03,1.245e+06
67.8,1.661e+06,3.526e+04,4.281e+03,1.700e+06
69.4,2.103e+06,3.537e+04,8.441e+03,2.147e+06
71.0,1.972e+06,3.461e+04,1.091e+04,2.018e+06
72.6,1.158e+06,3.179e+04,8.283e+03,1.198e+06
74.2,7.760e+05,1.846e+04,5.314e+03,7.998e+05
75.8,1.060e+06,1.113e+04,7.747e+03,1.079e+06
77.4,1.621e+06,9.272e+03,1.448e+04,1.645e+06
79.1,1.957e+06,7.830e+03,2.072e+04,1.985e+06
80.7,1.896e+06,8.633e+03,2.678e+04,1.931e+06
82.3,1.745e+06,9.541e+03,3.167e+04,1.787e+06
83.9,1.662e+06,1.063e+04,3.157e+04,1.704e+06
85.5,1.627e+06,1.273e+04,3.270e+04,1.672e+06
87.1,1.688e+06,1.466e+04,3.511e+04,1.738e+06
88.7,1.816e+06,1.354e+04,3.816e+04,1.867e+06
90.4,2.119e+06,6.941e+03,4.621e+04,2.172e+06
92.0,2.665e+06,1.899e+03,5.112e+04,2.718e+06
93.6,3.720e+06,1.194e+03,6.538e+04,3.787e+06
95.2,5.404e+06,2.825e+03,1.003e+05,5.508e+06
96.8,5.983e+06,7.570e+03,1.099e+05,6.100e+06
98.4,4.314e+06,1.247e+04,7.477e+04,4.401e+06
100.0,3.152e+06,1.162e+04,5.315e+04,3.216e+06
101.6,2.523e+06,9.305e+03,4.038e+04,2.572e+06
103.3,2.082e+06,8.219e+03,3.235e+04,2.122e+06
104.9,1.781e+06,8.068e+03,2.868e+04,1.818e+06
106.5,1.613e+06,7.987e+03,2.372e+04,1.644e+06
108.1,1.522e+06,7.185e+03,1.846e+04,1.547e+06
109.7,1.440e+06,6.141e+03,1.368e+04,1.460e+06
111.3,1.382e+06,5.482e+03,1.099e+04,1.398e+06
112.9,1.304e+06,4.693e+03,9.142e+03,1.317e+06
114.6,1.221e+06,2.917e+03,6.708e+03,1.230e+06
116.2,1.136e+06,1.422e+03,3.382e+03,1.141e+06
117.8,1.035e+06,1.562e+03,1.540e+03,1.038e+06
119.4,9.465e+05,1.911e+03,1.242e+03,9.496e+05
121.0,8.588e+05,2.538e+03,1.395e+03,8.627e+05
122.6,7.877e+05,3.662e+03,1.493e+03,7.928e+05
124.2,7.119e+05,4.625e+03,1.327e+03,7.179e+05
125.8,6.368e+05,4.657e+03,9.775e+02,6.424e+05
127.5,5.721e+05,4.230e+03,7.905e+02,5.772e+05
129.1,5.290e+05,3.948e+03,6.629e+02,5.336e+05
130.7,4.884e+05,3.717e+03,5.952e+02,4.927e+05
132.3,3.344e+05,2.879e+03,5.123e+02,3.378e+05
133.9,6.036e+04,1.630e+03,4.155e+02,6.241e+04
135.5,5.930e+03,1.701e+03,4.452e+02,8.076e+03
137.1,5.186e+03,1.816e+03,5.163e+02,7.518e+03
138.8,4.841e+03,1.568e+03,5.429e+02,6.952e+03
140.4,4.585e+03,1.366e+03,5.622e+02,6.513e+03
142.0,4.433e+03,1.297e+03,4.805e+02,6.210e+03
143.6,4.313e+03,1.221e+03,3.535e+02,5.887e+03
145.2,4.287e+03,7.776e+02,2.193e+02,5.284e+03
146.8,4.228e+03,4.020e+02,1.577e+02,4.788e+03
148.4,3.865e+03,3.406e+02,1.736e+02,4.379e+03
150.0,3.666e+03,6.954e+02,1.760e+02,4.538e+03
151.7,3.733e+03,1.089e+03,1.873e+02,5.009e+03
153.3,3.483e+03,9.817e+02,2.012e+02,4.666e+03
154.9,2.990e+03,9.050e+02,2.833e+02,4.179e+03
156.5,2.891e+03,9.350e+02,4.229e+02,4.249e+03
158.1,2.952e+03,9.922e+02,5.202e+02,4.464e+03
159.7,2.873e+03,1.065e+03,5.281e+02,4.466e+03
161.3,2.735e+03,1.306e+03,5.615e+02,4.603e+03
163.0,2.826e+03,1.661e+03,5.709e+02,5.059e+03
164.6,2.837e+03,1.930e+03,5.835e+02,5.351e+03
166.2,2.736e+03,2.108e+03,5.499e+02,5.394e+03
167.8,2.845e+03,2.472e+03,6.036e+02,5.920e+03
169.4,3.385e+03,2.990e+03,6.666e+02,7.042e+03
171.0,3.844e+03,3.499e+03,6.350e+02,7.977e+03
172.6,4.292e+03,4.093e+03,5.798e+02,8.965e+03
174.3,4.848e+03,4.811e+03,5.450e+02,1.020e+04
175.9,5.677e+03,5.653e+03,5.239e+02,1.185e+04
177.5,6.793e+03,6.136e+03,5.091e+02,1.344e+04
179.1,8.393e+03,6.247e+03,4.619e+02,1.510e+04
180.7,9.658e+03,5.853e+03,4.494e+02,1.596e+04
182.3,9.944e+03,5.220e+03,4.871e+02,1.565e+04
183.9,1.115e+04,4.748e+03,5.509e+02,1.645e+04
185.5,1.265e+04,4.237e+03,6.847e+02,1.758e+04
187.2,1.265e+04,3.648e+03,8.066e+02,1.710e+04
188.8,1.206e+04,3.015e+03,9.099e+02,1.599e+04
190.4,9.836e+03,2.440e+03,9.411e+02,1.322e+04
192.0,7.789e+03,1.999e+03,1.019e+03,1.081e+04
193.6,6.425e+03,1.110e+03,9.365e+02,8.471e+03
195.2,5.737e+03,9.873e+02,5.309e+02,7.255e+03
196.8,5.106e+03,1.538e+03,3.680e+02,7.011e+03
198.5,5.624e+03,1.929e+03,3.168e+02,7.870e+03
